vertexes,edges,density,time
1,0,0.05,0.0008971666673573964
2,0,0.05,0.001047266666868533
3,0,0.05,0.001413933334504236
4,0,0.05,0.0019692999989236646
5,1,0.05,0.0031555666680560535
6,1,0.05,0.0044972666666846335
7,2,0.05,0.006111099998899287
8,2,0.05,0.006795833333702224
9,3,0.05,0.008613866665522588
10,4,0.05,0.012454066667544339
11,5,0.05,0.014208200000590901
12,6,0.05,0.017873666665953653
13,7,0.05,0.02206939999922497
14,9,0.05,0.026280666666878005
15,10,0.05,0.03300413333514977
16,12,0.05,0.03878623333453864
17,13,0.05,0.04513743333329027
18,15,0.05,0.05196246666704004
19,17,0.05,0.06129309999967821
20,19,0.05,0.07134576666771864
21,21,0.05,0.07815976666734059
22,23,0.05,0.09524033333387176
23,25,0.05,0.10598330000135547
24,27,0.05,0.12206653333635131
25,30,0.05,0.124606900000875
26,32,0.05,0.14982086666748273
27,35,0.05,0.17099313333280483
28,37,0.05,0.1801861666668477
29,40,0.05,0.21071666666709157
30,43,0.05,0.226838866666886
31,46,0.05,0.23743186666536076
32,49,0.05,0.2884125333328787
33,52,0.05,0.3100639999985333
34,56,0.05,0.34188600000106817
35,59,0.05,0.3242708333345945
36,63,0.05,0.37305286666556486
37,66,0.05,0.3834444000001251
38,70,0.05,0.41899156666715953
39,74,0.05,0.4831763666662899
40,78,0.05,0.5147750999995537
41,82,0.05,0.5455471999984715
42,86,0.05,0.6056513333319913
43,90,0.05,0.6266665999992446
44,94,0.05,0.6515304999993532
45,99,0.05,0.7397875333325032
46,103,0.05,0.7775832666671553
47,108,0.05,0.8382889333338047
48,112,0.05,0.8929694666657421
49,117,0.05,0.9480168333335351
50,122,0.05,1.0094222333331497
51,127,0.05,1.1074903999997332
52,132,0.05,1.1488694999992315
53,137,0.05,1.1954763666660522
54,143,0.05,1.2757666666677399
55,148,0.05,1.357347266664514
56,154,0.05,1.4196165999995476
57,159,0.05,1.522593033334374
58,165,0.05,1.5699332999995856
59,171,0.05,1.6783040999996501
60,177,0.05,1.7103473333326253
61,183,0.05,1.8442000666643328
62,189,0.05,1.844347366667402
63,195,0.05,2.001737399998641
64,201,0.05,2.121229033333331
65,208,0.05,2.169718033332894
66,214,0.05,2.329647233332821
67,221,0.05,2.356351400000752
68,227,0.05,2.547730566666928
69,234,0.05,2.618603999998944
70,241,0.05,2.7677402999988963
71,248,0.05,2.818745966667772
72,255,0.05,3.055133299999587
73,262,0.05,3.1959401000013563
74,270,0.05,3.2284735666673705
75,277,0.05,3.3321514000003085
76,285,0.05,3.51653339999937
77,292,0.05,3.676938899998561
78,300,0.05,3.777920966665723
79,308,0.05,3.8325847333316196
80,316,0.05,4.0420124999987666
81,324,0.05,4.265873666669033
82,332,0.05,4.355534566667056
83,340,0.05,4.603512433332924
84,348,0.05,4.789738800001923
85,357,0.05,4.919284700000522
86,365,0.05,5.049798633332614
87,374,0.05,5.2649555333322455
88,382,0.05,5.450229300001297
89,391,0.05,5.538683266666074
90,400,0.05,5.766218066665847
91,409,0.05,6.083115299999046
92,418,0.05,6.238615400001872
93,427,0.05,6.344561066666661
94,437,0.05,6.5053943999998864
95,446,0.05,6.73368616666797
96,456,0.05,7.191207033334972
97,465,0.05,7.225974999998168
98,475,0.05,7.47244856666498
99,485,0.05,7.809102733331012
100,495,0.05,7.965445699998479
1,0,0.1,0.0006124999960851104
2,0,0.1,0.0010165666642099798
3,0,0.1,0.0014973333321677273
4,1,0.1,0.0021457666690594124
5,2,0.1,0.003222133331822382
6,3,0.1,0.005351366664285706
7,4,0.1,0.006883300001921573
8,5,0.1,0.009408333333264332
9,7,0.1,0.013665433333661289
10,9,0.1,0.01663460000334756
11,11,0.1,0.021647200000529665
12,13,0.1,0.028987533331322386
13,15,0.1,0.033598533330329396
14,18,0.1,0.04213616666580341
15,21,0.1,0.056850066667379906
16,24,0.1,0.06688193333369934
17,27,0.1,0.07569866666775245
18,30,0.1,0.08858886666776773
19,34,0.1,0.10629719999997178
20,38,0.1,0.12956243333140569
21,42,0.1,0.1406597999969487
22,46,0.1,0.16988053333951333
23,50,0.1,0.1946666000028093
24,55,0.1,0.22196390000128
25,60,0.1,0.25429986666362464
26,65,0.1,0.2918083333327104
27,70,0.1,0.3242417000005086
28,75,0.1,0.3417820000009897
29,81,0.1,0.38992073333569505
30,87,0.1,0.4249862666692176
31,93,0.1,0.48040686666865895
32,99,0.1,0.5213014000039115
33,105,0.1,0.5589431333343479
34,112,0.1,0.6198235666659002
35,119,0.1,0.692272366660518
36,126,0.1,0.7622874000001426
37,133,0.1,0.8133985666707607
38,140,0.1,0.8073972666655512
39,148,0.1,0.9177388999963417
40,156,0.1,0.9847389000015028
41,164,0.1,1.0818847000024334
42,172,0.1,1.1629109999982272
43,180,0.1,1.2315945000002178
44,189,0.1,1.340393033331111
45,198,0.1,1.4533722666660271
46,207,0.1,1.5494236000004473
47,216,0.1,1.6399166666673182
48,225,0.1,1.7361360333334612
49,235,0.1,1.842002800001789
50,245,0.1,1.9361637000021876
51,255,0.1,2.0897666333307066
52,265,0.1,2.1775513666720294
53,275,0.1,2.3707431333320983
54,286,0.1,2.4832985999940624
55,297,0.1,2.6461763333382273
56,308,0.1,2.7364763999997876
57,319,0.1,2.88678046666746
58,330,0.1,3.036411299998084
59,342,0.1,3.2712833333325384
60,354,0.1,3.3631471999948794
61,366,0.1,3.5387557333346344
62,378,0.1,3.7183277333355136
63,390,0.1,3.8726847333369583
64,403,0.1,4.093818066667154
65,416,0.1,4.368204199999089
66,429,0.1,4.581026433337835
67,442,0.1,4.722184600000408
68,455,0.1,4.860700066666368
69,469,0.1,5.066700066666385
70,483,0.1,5.335222100000199
71,497,0.1,5.5719776666658545
72,511,0.1,6.230816699997869
73,525,0.1,6.274333300002392
74,540,0.1,6.3716207999997705
75,555,0.1,7.297627799998925
76,570,0.1,7.5679555333332855
77,585,0.1,7.453945899998378
78,600,0.1,7.427620899999472
79,616,0.1,7.710133399997214
80,632,0.1,7.922085999998292
81,648,0.1,8.184033366666199
82,664,0.1,8.449102766668185
83,680,0.1,8.820795866667671
84,697,0.1,9.089926433334009
85,714,0.1,9.580037500004815
86,731,0.1,9.821597233335902
87,748,0.1,10.028063933331547
88,765,0.1,10.46455976666607
89,783,0.1,10.751955566669835
90,801,0.1,11.262683433333601
91,819,0.1,11.552198566667471
92,837,0.1,11.919633400003704
93,855,0.1,12.373252766664677
94,874,0.1,12.706309699999943
95,893,0.1,13.342886133330959
96,912,0.1,13.587815399995407
97,931,0.1,14.065380700000674
98,950,0.1,14.384537599998263
99,970,0.1,15.241615299999012
100,990,0.1,15.344947099997816
1,0,0.15,0.0006305333338711231
2,0,0.15,0.0009986333329455495
3,0,0.15,0.0015069666668902453
4,1,0.15,0.002794500002778477
5,3,0.15,0.004541700002391735
6,4,0.15,0.006866866666162726
7,6,0.15,0.008883233332805199
8,8,0.15,0.013111133330312441
9,10,0.15,0.01703880000055354
10,13,0.15,0.02329036666992579
11,16,0.15,0.033877666665678895
12,19,0.15,0.040349966665568594
13,23,0.15,0.05234163333038092
14,27,0.15,0.06756383332913174
15,31,0.15,0.0803000000018983
16,36,0.15,0.09571253333717777
17,40,0.15,0.1119250000044758
18,45,0.15,0.13261126666937648
19,51,0.15,0.16002090000029057
20,57,0.15,0.18321246666630486
21,63,0.15,0.22129573333510658
22,69,0.15,0.2521193666638055
23,75,0.15,0.2915000666670646
24,82,0.15,0.326072233336087
25,90,0.15,0.3690180333336457
26,97,0.15,0.40780686666437305
27,105,0.15,0.4533596666666047
28,113,0.15,0.5249653333360508
29,121,0.15,0.581158266663806
30,130,0.15,0.6355486333328978
31,139,0.15,0.6917264333357783
32,148,0.15,0.7587249666642037
33,158,0.15,0.8473805333333454
34,168,0.15,0.9256611666643266
35,178,0.15,0.9805639333336558
36,189,0.15,1.079374900002487
37,199,0.15,1.2060209333318046
38,210,0.15,1.2305986333312073
39,222,0.15,1.4024097666672712
40,234,0.15,1.500315199999136
41,246,0.15,1.5989179333322074
42,258,0.15,1.6956874666666029
43,270,0.15,1.8207652666689
44,283,0.15,1.9692597666666718
45,297,0.15,2.1150902999986934
46,310,0.15,2.205451366665064
47,324,0.15,2.383511066664331
48,338,0.15,2.5999694666666073
49,352,0.15,2.6981360000036148
50,367,0.15,2.897867966670257
51,382,0.15,3.0560820333325487
52,397,0.15,3.2251680333350428
53,413,0.15,3.412909633333546
54,429,0.15,3.5900028333353853
55,445,0.15,3.8771861666693517
56,462,0.15,3.9567040333319405
57,478,0.15,4.252156933334088
58,495,0.15,4.415138933332703
59,513,0.15,4.727056866669462
60,531,0.15,4.97929730000332
61,549,0.15,5.264402766664489
62,567,0.15,5.439780399999942
63,585,0.15,5.672799999999256
64,604,0.15,6.054994433332202
65,624,0.15,6.335931899998097
66,643,0.15,6.682222266671071
67,663,0.15,6.898427733334718
68,683,0.15,7.254112466667569
69,703,0.15,7.977054099999729
70,724,0.15,7.986023566666252
71,745,0.15,8.170397366662504
72,766,0.15,8.559968066665155
73,788,0.15,8.978081933333707
74,810,0.15,9.631148666666908
75,832,0.15,9.627919333336385
76,855,0.15,10.008095933336373
77,877,0.15,10.548979166669406
78,900,0.15,10.826748700003463
79,924,0.15,11.26031253333224
80,948,0.15,11.563300066667162
81,972,0.15,12.182447133334525
82,996,0.15,12.55615283333403
83,1020,0.15,13.127419533332349
84,1045,0.15,13.556587566667607
85,1071,0.15,13.902165366665523
86,1096,0.15,14.691012399996831
87,1122,0.15,15.102204200000338
88,1148,0.15,15.680508299999474
89,1174,0.15,16.247245833331664
90,1201,0.15,16.544145833331452
91,1228,0.15,17.331193066669925
92,1255,0.15,17.657613800002043
93,1283,0.15,18.29782506666504
94,1311,0.15,19.038484766667807
95,1339,0.15,19.60198746666606
96,1368,0.15,20.190845733333163
97,1396,0.15,20.952358266667186
98,1425,0.15,21.524973599997566
99,1455,0.15,22.121711133337385
100,1485,0.15,22.843177733334603
1,0,0.2,0.0006125000008220619
2,0,0.2,0.0010346999980962817
3,1,0.2,0.0017595999963759823
4,2,0.2,0.0033542000020740184
5,4,0.2,0.004847200003155194
6,6,0.2,0.00852080000015576
7,8,0.2,0.011940199998624243
8,11,0.2,0.016413900001073973
9,14,0.2,0.02392086666607914
10,18,0.2,0.030552666666494588
11,22,0.2,0.04177356666540769
12,26,0.2,0.05515556666466637
13,31,0.2,0.07072623333025756
14,36,0.2,0.08579439999797007
15,42,0.2,0.10457920000040606
16,48,0.2,0.13089443333171857
17,54,0.2,0.15354846666374064
18,61,0.2,0.18017496666781577
19,68,0.2,0.2154777666675045
20,76,0.2,0.2468972666671713
21,84,0.2,0.29217493333154226
22,92,0.2,0.3302096666658372
23,101,0.2,0.3741083666701191
24,110,0.2,0.41889856666633324
25,120,0.2,0.489556933333309
26,130,0.2,0.5476277333362608
27,140,0.2,0.6000638666667631
28,151,0.2,0.6743320333346977
29,162,0.2,0.7615151666698239
30,174,0.2,0.8317389666653222
31,186,0.2,0.918927766665926
32,198,0.2,1.005777833334302
33,211,0.2,1.1092999999988251
34,224,0.2,1.224301366667646
35,238,0.2,1.3153096000015314
36,252,0.2,1.4468597999998185
37,266,0.2,1.5477778333320202
38,281,0.2,1.6835055666670466
39,296,0.2,1.8330332000023948
40,312,0.2,1.9486180666604014
41,328,0.2,2.0985126333367057
42,344,0.2,2.295545900003996
43,361,0.2,2.4289847666703204
44,378,0.2,2.601237566664357
45,396,0.2,2.81739283333593
46,414,0.2,2.9905750333351
47,432,0.2,3.167833299999264
48,451,0.2,3.3585999666665125
49,470,0.2,3.549191633330414
50,490,0.2,3.8529320000018665
51,510,0.2,4.043105566667767
52,530,0.2,4.242509800003329
53,551,0.2,4.550079133333422
54,572,0.2,4.8321432333305365
55,594,0.2,5.019163966665019
56,616,0.2,5.407856900001207
57,638,0.2,5.64905133333203
58,661,0.2,5.956774933333501
59,684,0.2,6.284755600000835
60,708,0.2,6.577584633335694
61,732,0.2,8.313417966666256
62,756,0.2,7.255398766667061
63,781,0.2,7.569830566667217
64,806,0.2,7.940416733336519
65,832,0.2,8.241776299998568
66,858,0.2,8.75506099999844
67,884,0.2,9.094295699999103
68,911,0.2,9.57324309999971
69,938,0.2,9.998980566667607
70,966,0.2,10.513262400003024
71,994,0.2,10.874718066668265
72,1022,0.2,11.338156966667157
73,1051,0.2,11.767124933330328
74,1080,0.2,12.315022266668999
75,1110,0.2,12.871927799995811
76,1140,0.2,13.311327900000455
77,1170,0.2,13.968308299999421
78,1201,0.2,14.560844433338124
79,1232,0.2,15.07241939999536
80,1264,0.2,15.722843033335229
81,1296,0.2,16.174381966660196
82,1328,0.2,16.885358366667447
83,1361,0.2,17.68607786666981
84,1394,0.2,18.312337399995233
85,1428,0.2,18.706919399998394
86,1462,0.2,19.471241666667538
87,1496,0.2,20.119454266668413
88,1531,0.2,20.82644443333379
89,1566,0.2,21.48443466666663
90,1602,0.2,22.45193479999917
91,1638,0.2,23.129579066667816
92,1674,0.2,23.711662466667843
93,1711,0.2,24.78017493333482
94,1748,0.2,25.55761813333201
95,1786,0.2,26.489015166669105
96,1824,0.2,27.082727766670207
97,1862,0.2,27.82988476666617
98,1901,0.2,29.320052800003776
99,1940,0.2,29.6689416666671
100,1980,0.2,32.71679166666578
1,0,0.25,0.0006513666619412106
2,0,0.25,0.0011361333330720906
3,1,0.25,0.002116699999987759
4,3,0.25,0.003679133337186613
5,5,0.25,0.006134733337148646
6,7,0.25,0.009404233336833082
7,10,0.25,0.01415823333559274
8,14,0.25,0.019969433337034086
9,18,0.25,0.029141666668882255
10,22,0.25,0.03901799999918391
11,27,0.25,0.052523633333597296
12,33,0.25,0.07086113333609016
13,39,0.25,0.08878066666776856
14,45,0.25,0.10341939999894596
15,52,0.25,0.12987353333831683
16,60,0.25,0.15965419999967403
17,68,0.25,0.1974042666669599
18,76,0.25,0.22701376666418582
19,85,0.25,0.27599999999855146
20,95,0.25,0.31610970000125843
21,105,0.25,0.3604056666678919
22,115,0.25,0.4112180000011752
23,126,0.25,0.48974166666842694
24,138,0.25,0.6864818666646973
25,150,0.25,0.6093417000026117
26,162,0.25,0.6844194666683734
27,175,0.25,0.8567138666658517
28,189,0.25,0.8836931000009448
29,203,0.25,0.951779200000639
30,217,0.25,1.1241625333383354
31,232,0.25,1.1515791333332952
32,248,0.25,1.4199360666708571
33,264,0.25,1.3955043000000462
34,280,0.25,1.5137264000022317
35,297,0.25,1.6458027666658381
36,315,0.25,1.7469527666662543
37,333,0.25,1.9323390000001457
38,351,0.25,2.101122299998792
39,370,0.25,2.2365582333321754
40,390,0.25,2.428656933333665
41,410,0.25,2.621837466665511
42,430,0.25,2.825905566669462
43,451,0.25,3.01680706666995
44,473,0.25,3.2341875333334733
45,495,0.25,3.476587566668362
46,517,0.25,3.6784513666674457
47,540,0.25,3.928723566664871
48,564,0.25,4.20355146666509
49,588,0.25,4.4921597000012525
50,612,0.25,4.681986133329967
51,637,0.25,5.092438999999634
52,663,0.25,5.305861033331401
53,689,0.25,5.585575033331717
54,715,0.25,5.870727766664648
55,742,0.25,6.340981899997662
56,770,0.25,6.605588833331429
57,798,0.25,6.923218200000747
58,826,0.25,7.3524360333361
59,855,0.25,7.7416889333344825
60,885,0.25,8.243344466667205
61,915,0.25,8.594773633329092
62,945,0.25,8.995501300001743
63,976,0.25,9.51453749999871
64,1008,0.25,9.955420766665194
65,1040,0.25,10.432090333333122
66,1072,0.25,10.77143190000148
67,1105,0.25,11.575134733333433
68,1139,0.25,11.88301943333272
69,1173,0.25,12.489212566664301
70,1207,0.25,13.199020833334885
71,1242,0.25,13.582048566663238
72,1278,0.25,14.17717916666561
73,1314,0.25,14.69763616666834
74,1350,0.25,15.393027833329143
75,1387,0.25,16.008087466665682
76,1425,0.25,16.722784800001023
77,1463,0.25,17.666984733333873
78,1501,0.25,18.248636099996435
79,1540,0.25,19.124529166667987
80,1580,0.25,19.599366599997364
81,1620,0.25,20.221516733331175
82,1660,0.25,21.21012513333085
83,1701,0.25,21.97852636666653
84,1743,0.25,23.674981899998215
85,1785,0.25,23.51599169999948
86,1827,0.25,24.528248533335766
87,1870,0.25,25.351445766665393
88,1914,0.25,26.307774966665914
89,1958,0.25,26.967972166667664
90,2002,0.25,28.37206953333388
91,2047,0.25,28.86702780000216
92,2093,0.25,29.988212500001055
93,2139,0.25,30.94315963333069
94,2185,0.25,32.606548633339116
95,2232,0.25,33.297868166666454
96,2280,0.25,34.16955269999752
97,2328,0.25,35.47298196666399
98,2376,0.25,36.92785559999834
99,2425,0.25,37.714968033335104
100,2475,0.25,38.75849716666361
1,0,0.3,0.0006139000011747461
2,0,0.3,0.001155466664689205
3,1,0.3,0.001983333332115459
4,3,0.3,0.0039042666647522615
5,6,0.3,0.006187333336053295
6,9,0.3,0.010062600001485103
7,12,0.3,0.019347200003494436
8,16,0.3,0.023197166664582863
9,21,0.3,0.03402076667005834
10,27,0.3,0.04577370000049541
11,33,0.3,0.060366699997871365
12,39,0.3,0.08243889999638061
13,46,0.3,0.10110689999767904
14,54,0.3,0.1296708333342167
15,63,0.3,0.14921810000127303
16,72,0.3,0.18759293333232563
17,81,0.3,0.23114596666384082
18,91,0.3,0.27436806666685243
19,102,0.3,0.3159179999992527
20,114,0.3,0.37240129999910704
21,126,0.3,0.42460559999237074
22,138,0.3,0.49157763333103804
23,151,0.3,0.5529430666636396
24,165,0.3,0.6357138666667576
25,180,0.3,0.7205055666626473
26,195,0.3,0.787215166666518
27,210,0.3,0.8997263999968178
28,226,0.3,1.0008235999966548
29,243,0.3,1.1139653666693523
30,261,0.3,1.2130069000003612
31,279,0.3,1.3590167000027502
32,297,0.3,1.4973292666676723
33,316,0.3,1.6163152999970027
34,336,0.3,1.770508233330285
35,357,0.3,1.9340501666628522
36,378,0.3,2.1148748666651804
37,399,0.3,2.2833680999999237
38,421,0.3,2.4446403000013106
39,444,0.3,2.684290333335563
40,468,0.3,2.8809388999974317
41,492,0.3,3.118165233333533
42,516,0.3,3.382484666666604
43,541,0.3,3.6167055666642987
44,567,0.3,3.8817278666651114
45,594,0.3,4.139648566669507
46,621,0.3,4.4196707999949085
47,648,0.3,4.724680600000397
48,676,0.3,5.0881777333302125
49,705,0.3,5.389672299999877
50,735,0.3,5.74349859999946
51,765,0.3,5.97133323333594
52,795,0.3,6.339031966665705
53,826,0.3,6.793743033333044
54,858,0.3,7.187898566669067
55,891,0.3,7.454137433332638
56,924,0.3,7.970305600006593
57,957,0.3,8.428722166667058
58,991,0.3,8.841084699998683
59,1026,0.3,9.463994500003045
60,1062,0.3,9.963309866664835
61,1098,0.3,10.342593133333366
62,1134,0.3,10.997731966663574
63,1171,0.3,11.429562533328408
64,1209,0.3,12.076987499998873
65,1248,0.3,12.478906966666159
66,1287,0.3,13.208437466665638
67,1326,0.3,13.874177799997748
68,1366,0.3,14.601815299999998
69,1407,0.3,15.058427833335486
70,1449,0.3,15.736563866668499
71,1491,0.3,16.51415150000067
72,1533,0.3,17.215141666669826
73,1576,0.3,18.000201233332785
74,1620,0.3,18.631593133337294
75,1665,0.3,19.626900066667
76,1710,0.3,20.360855566666675
77,1755,0.3,21.426727866665374
78,1801,0.3,22.05809993333503
79,1848,0.3,22.920134699998584
80,1896,0.3,23.65557913333589
81,1944,0.3,24.813036000000466
82,1992,0.3,25.690963833334497
83,2041,0.3,27.02028469999978
84,2091,0.3,27.72028463333432
85,2142,0.3,28.840148533331938
86,2193,0.3,29.92926673333424
87,2244,0.3,30.92462363332989
88,2296,0.3,32.11208610000066
89,2349,0.3,33.048191633332635
90,2403,0.3,34.300101433331065
91,2457,0.3,35.489672399997595
92,2511,0.3,36.650215299998955
93,2566,0.3,37.68070979999815
94,2622,0.3,39.063586133331306
95,2679,0.3,40.49664306666519
96,2736,0.3,41.42373623333052
97,2793,0.3,43.08213896666757
98,2851,0.3,44.56128186666982
99,2910,0.3,45.721252799998524
100,2970,0.3,47.72108339999951
1,0,0.35,0.0007681666659209441
2,0,0.35,0.0011764666661899053
3,2,0.35,0.002245733331089165
4,4,0.35,0.004484833333625223
5,7,0.35,0.007166633334539559
6,10,0.35,0.01343763333162921
7,14,0.35,0.019958366667083283
8,19,0.35,0.028983199999288445
9,25,0.35,0.03930280000095839
10,31,0.35,0.05486953333691721
11,38,0.35,0.07383336667032836
12,46,0.35,0.09613610000087647
13,54,0.35,0.12092650000283811
14,63,0.35,0.1475235999995069
15,73,0.35,0.18284589999666423
16,84,0.35,0.22139580000081574
17,95,0.35,0.2636639666652248
18,107,0.35,0.3172027333315934
19,119,0.35,0.37252369999976054
20,133,0.35,0.43231526666716036
21,147,0.35,0.5003124333323209
22,161,0.35,0.5782888333328629
23,177,0.35,0.6479695333344656
24,193,0.35,0.7299665666636201
25,210,0.35,1.038706866666909
26,227,0.35,1.2309679666685724
27,245,0.35,1.5066193666645706
28,264,0.35,1.5783568666667709
29,284,0.35,1.6625985000009298
30,304,0.35,1.4447236999984625
31,325,0.35,1.5642832999996397
32,347,0.35,1.7391124666649678
33,369,0.35,1.8992624666689533
34,392,0.35,2.1018555666671546
35,416,0.35,2.2830138999997494
36,441,0.35,2.489302766668781
37,466,0.35,2.696845866669643
38,492,0.35,2.879204233333136
